num crossings	time (s)	maj axis (mm)	min axis (mm)	theta (rad )	slope (V/s)
1123	2553.277840	69.770035	-14.231436	3.708870	8.617172
1125	2555.342868	70.105012	-14.083725	3.702170	8.970240
1127	2557.401380	70.616009	-13.864717	3.712293	8.758413
1131	2561.531188	68.980045	-13.762138	3.716823	8.303462
1133	2563.606150	69.283155	-13.652128	3.694291	9.061715
1135	2565.670399	70.301682	-13.303147	3.692789	9.166372
1137	2567.725090	70.258339	-13.091773	3.715171	8.825686
1139	2569.789143	69.044280	-13.199569	3.716710	8.553411
1143	2573.936772	69.547511	-12.954887	3.682490	8.418496
1145	2575.998326	70.023298	-12.795888	3.688490	8.714484
1147	2578.055496	69.860437	-12.633990	3.699485	9.001888
1151	2582.185017	68.999502	-12.393524	3.696326	8.515031
1153	2584.253297	68.981275	-12.227512	3.689366	8.669442
1157	2588.389521	69.238892	-11.927968	3.683135	8.236638
1159	2590.452512	69.367107	-11.827860	3.680360	8.460422
1161	2592.516022	69.158232	-11.745804	3.675681	8.306527
1163	2594.578509	69.054256	-11.674153	3.670429	8.359294
1167	2598.715302	68.260179	-11.363506	3.670369	8.809709
1169	2600.789259	68.084882	-11.179271	3.678187	8.745234
1173	2604.920677	69.333611	-11.013393	3.678642	8.590792
1175	2606.978237	69.222387	-10.946512	3.660078	8.589547
1177	2609.038728	68.556062	-10.783144	3.652542	8.852531
1179	2611.109725	67.897631	-10.556123	3.656850	8.585004
1183	2615.252606	68.105117	-10.282433	3.669980	8.630993
1185	2617.318164	68.591392	-10.180848	3.667914	8.474562
1187	2619.378800	68.666779	-10.022281	3.658500	8.499713
1189	2621.439792	68.439346	-9.862295	3.651641	8.579354
1191	2623.501563	68.366363	-9.759531	3.649221	8.614552
1195	2627.630153	68.103593	-9.515663	3.648948	8.485464
1197	2629.696281	67.924948	-9.374802	3.648177	8.748783
1201	2633.828379	67.637251	-9.111037	3.650012	8.801770
1203	2635.897283	67.656211	-8.993864	3.646851	8.412772
1207	2640.038979	67.455669	-8.746445	3.640137	8.803082
1209	2642.107153	67.376612	-8.643170	3.633612	8.621039
1211	2644.172974	67.582611	-8.523258	3.630288	8.409365
1215	2648.291958	68.000711	-8.228631	3.639245	9.021475
1217	2650.352434	67.527143	-8.075450	3.645587	9.233516
1219	2652.420279	67.025607	-7.999916	3.644046	8.581090
1221	2654.491662	66.769680	-7.893584	3.633601	8.260754
1225	2658.632949	66.880342	-7.595786	3.623312	8.564203
1227	2660.698455	67.144964	-7.523033	3.623289	8.651485
1231	2664.824769	67.154274	-7.300384	3.623117	8.944628
1233	2666.887653	67.026563	-7.141467	3.621834	8.964582
1237	2671.016421	66.897025	-6.935848	3.622737	8.753721
1239	2673.080492	66.851093	-6.831432	3.621287	8.869060
1241	2675.145680	66.763862	-6.721013	3.619846	8.714648
1243	2677.212998	66.591187	-6.606032	3.619012	8.581116
1247	2681.346321	66.246494	-6.315469	3.616096	8.694722
1249	2683.414890	66.249904	-6.169304	3.616822	8.926749
1253	2687.552191	65.990624	-5.941392	3.619333	8.612245
1255	2689.619209	65.991224	-5.741511	3.621680	8.746307
1259	2693.745792	66.518653	-5.492036	3.619596	8.685344
1261	2695.805982	66.654133	-5.407879	3.611276	8.380691
1263	2697.865359	66.181011	-5.288354	3.603663	8.547897
1265	2699.929395	66.025511	-5.157367	3.602216	8.533397
1269	2704.068128	65.417543	-4.865411	3.605684	8.275731
1271	2706.138448	65.262578	-4.751927	3.608072	8.605223
1275	2710.274035	65.410036	-4.555743	3.608901	8.569865
1277	2712.339686	65.297007	-4.427261	3.607725	8.393008
1281	2716.471752	65.300025	-4.179020	3.605510	8.357535
1283	2718.537501	65.085143	-4.062236	3.602799	8.402364
1285	2720.602341	65.224711	-3.946571	3.601143	8.368968
1289	2724.731249	65.219332	-3.713565	3.597161	8.460371
1291	2726.794332	65.341098	-3.561040	3.597874	8.386462
1295	2730.915964	65.291563	-3.299481	3.605542	8.340390
1297	2732.979122	64.979515	-3.224054	3.610093	8.226788
1301	2737.116544	64.292487	-3.056533	3.603154	8.177360
1303	2739.187305	64.522953	-2.945826	3.599680	8.190074
1305	2741.256275	64.523916	-2.825751	3.598051	8.435133
1307	2743.324103	64.341810	-2.700573	3.595748	8.540472
1309	2745.390414	64.394648	-2.578138	3.596266	8.368695
1313	2749.520475	64.250285	-2.359972	3.596509	8.321485
1315	2751.585343	64.130318	-2.250571	3.597497	8.246406
1319	2755.718090	63.951859	-2.035369	3.600280	8.224442
1321	2757.783914	64.002813	-1.911505	3.601798	8.095714
1323	2759.847829	63.978010	-1.820406	3.602641	8.280740
1327	2763.973714	64.254602	-1.615526	3.599245	7.910802
1329	2766.033395	64.341479	-1.538176	3.593339	8.092273
1331	2768.094732	63.950488	-1.445723	3.589271	8.183417
1333	2770.158639	63.623976	-1.291128	3.588185	8.242223
1337	2774.295911	63.338635	-1.045629	3.591069	7.785203
1339	2776.364931	63.231821	-0.942017	3.592607	8.266270
1343	2780.499911	63.054551	-0.736735	3.592937	7.937359
1345	2782.566024	63.071715	-0.637203	3.592818	7.841313
1349	2786.695304	62.973563	-0.429720	3.590773	8.131044
1351	2788.760044	63.177181	-0.291725	3.591136	8.027864
1355	2792.883106	63.248587	-0.076604	3.596190	7.617200
1357	2794.946108	63.055723	0.050914	3.600922	7.903232
1361	2799.077391	62.482027	0.209757	3.602339	7.717738
1363	2801.148256	62.375548	0.288350	3.598333	7.710935
1365	2803.217308	62.379355	0.361919	3.595375	7.503192
1367	2805.286994	62.372563	0.476869	3.595575	7.761686
1369	2807.354220	62.370290	0.594568	3.594573	7.536161
1371	2809.420387	62.280934	0.705769	3.594936	8.062965
1373	2811.486478	62.352547	0.825149	3.596645	7.796395
1375	2813.551878	62.176008	0.910364	3.597615	7.410569
1377	2815.617237	62.093544	1.014243	3.600590	7.766183
1379	2817.682507	62.056157	1.129969	3.601181	8.103980
1381	2819.745785	62.146843	1.231376	3.601944	7.745932
1383	2821.808716	62.239797	1.299108	3.599998	7.837944
1385	2823.868101	62.171675	1.363596	3.596681	7.575024
1387	2825.929971	62.043186	1.481715	3.592273	7.740261
1391	2830.058395	61.583408	1.734413	3.591373	7.265067
1393	2832.125742	61.426934	1.820810	3.592265	7.403875
1397	2836.263356	61.158625	2.014227	3.595449	7.523401
1399	2838.329858	61.190518	2.066855	3.595759	7.443668
1403	2842.461147	61.152624	2.286543	3.595696	7.208601
1405	2844.525541	61.149087	2.367690	3.596028	7.432439
1409	2848.651383	61.254124	2.596585	3.600748	7.353939
1411	2850.713858	61.119137	2.714293	3.604780	7.239322
1415	2854.842990	60.584380	2.829023	3.609370	7.432942
